# dimensionless total [l(l+1)/2pi] C_l's
# for l=2 to 3000, i.e. number of multipoles equal to 2999
#
# -> if you prefer output in CAMB/HealPix/LensPix units/order, set 'format' to 'camb' in input file
# -> if you don't want to see such a header, set 'headers' to 'no' in input file
# -> for CMB lensing (phi), these are C_l^phi-phi for the lensing potential.
#    Remember the conversion factors:
#    C_l^dd (deflection) = l(l+1) C_l^phi-phi
#    C_l^gg (shear/convergence) = 1/4 (l(l+1))^2 C_l^phi-phi
#
# 1:l     2:TT                     3:EE                     4:TE                     5:BB                     6:phiphi                 7:TPhi                   8:Ephi               
    2       1.069707040064e-10       3.381472484684e-15       4.447715512766e-13       0.000000000000e+00       1.175695645286e-08      -2.437137784528e-10      -1.816122153576e-12 
    3       1.027142052199e-10       4.979777525442e-15       4.591095203670e-13       0.000000000000e+00       7.170921501783e-09      -1.366019001719e-10      -1.454350499877e-12 
    4       1.003274273623e-10       5.184338149511e-15       4.220751187325e-13       0.000000000000e+00       4.962024411790e-09      -8.823529401481e-11      -1.076072293927e-12 
    5       9.894430512950e-11       4.256695023296e-15       3.635096258777e-13       0.000000000000e+00       3.687368201394e-09      -6.216246183126e-11      -7.340820260831e-13 
    6       9.824453107052e-11       2.896562679179e-15       2.994850573339e-13       0.000000000000e+00       2.867577312957e-09      -4.630466339381e-11      -4.483948329522e-13 
    7       9.805496927300e-11       1.711838161212e-15       2.402333087461e-13       0.000000000000e+00       2.305581577622e-09      -3.590873197227e-11      -2.284020961248e-13 
    8       9.829194037266e-11       9.646409404671e-16       1.908262395121e-13       0.000000000000e+00       1.900490374019e-09      -2.869350913272e-11      -7.381450622528e-14 
    9       9.882274811655e-11       6.172443348329e-16       1.532335566993e-13       0.000000000000e+00       1.596997089535e-09      -2.343671411786e-11       2.186170578200e-14 
   10       9.962097346049e-11       4.992062450581e-16       1.274377157868e-13       0.000000000000e+00       1.363395406131e-09      -1.945906114863e-11       6.891517774195e-14 
   11       1.005973678015e-10       4.549632777489e-16       1.121889792320e-13       0.000000000000e+00       1.107722923466e-09      -1.510621249127e-11       7.926537093830e-14 
   12       1.017178862131e-10       4.086341930421e-16       1.055531567204e-13       0.000000000000e+00       9.647671417485e-10      -1.287473989012e-11       6.617050201421e-14 
   13       1.029755861510e-10       3.542518167768e-16       1.052967530134e-13       0.000000000000e+00       8.478731080775e-10      -1.097878505310e-11       4.073005464352e-14 
   14       1.043277285442e-10       3.137618737142e-16       1.092907784674e-13       0.000000000000e+00       7.509835366480e-10      -9.417271330229e-12       1.217913962698e-14 
   15       1.057499982807e-10       3.022944028166e-16       1.157279198787e-13       0.000000000000e+00       6.697078295943e-10      -8.128174159563e-12      -1.275503851961e-14 
   16       1.072280823666e-10       3.174424760986e-16       1.233145152156e-13       0.000000000000e+00       6.008253658385e-10      -7.014403526536e-12      -3.012711438484e-14 
   17       1.087833319050e-10       3.472111800232e-16       1.312312833051e-13       0.000000000000e+00       5.419119230064e-10      -6.132726773664e-12      -3.882877424836e-14 
   18       1.103774219081e-10       3.817430680956e-16       1.389985258119e-13       0.000000000000e+00       4.909025184996e-10      -5.371490031709e-12      -3.964093874904e-14 
   19       1.120224372426e-10       4.220000462312e-16       1.465294084071e-13       0.000000000000e+00       4.469863219258e-10      -4.705018219727e-12      -3.438525511289e-14 
   20       1.137049332994e-10       4.726884694206e-16       1.538659198744e-13       0.000000000000e+00       4.083916316514e-10      -4.136635635104e-12      -2.589007473419e-14 
   21       1.154252286445e-10       5.386946377556e-16       1.611948366574e-13       0.000000000000e+00       3.744860687703e-10      -3.661659618107e-12      -1.649733128207e-14 
   22       1.171635788909e-10       6.243291786122e-16       1.687629803129e-13       0.000000000000e+00       3.444455592649e-10      -3.259580584693e-12      -8.559541285571e-15 
   23       1.189369543364e-10       7.285972766091e-16       1.767160638979e-13       0.000000000000e+00       3.178400597593e-10      -2.896110054347e-12      -3.190183458203e-15 
   24       1.207522728293e-10       8.484363434761e-16       1.851295503900e-13       0.000000000000e+00       2.940335387380e-10      -2.535688392189e-12      -9.428110133873e-16 
   25       1.225984625497e-10       9.831022974721e-16       1.938994646067e-13       0.000000000000e+00       2.727350027162e-10      -2.208978751730e-12      -1.509573443718e-15 
   26       1.244483871666e-10       1.132525959998e-15       2.028156416825e-13       0.000000000000e+00       2.535494658318e-10      -1.956458299851e-12      -4.082198837782e-15 
   27       1.263132533934e-10       1.297380574000e-15       2.116202128314e-13       0.000000000000e+00       2.362394349896e-10      -1.743804930915e-12      -7.623699632433e-15 
   28       1.282063132302e-10       1.478420243178e-15       2.200216718881e-13       0.000000000000e+00       2.204988058037e-10      -1.517200949750e-12      -1.097295357137e-14 
   29       1.301338815068e-10       1.675727833059e-15       2.278319531087e-13       0.000000000000e+00       2.062427729936e-10      -1.285467951631e-12      -1.359716304084e-14 
   30       1.320876430429e-10       1.889003485005e-15       2.348743370459e-13       0.000000000000e+00       1.933136042009e-10      -1.080966681699e-12      -1.510536491421e-14 
   31       1.340498547783e-10       2.118078725105e-15       2.409823066609e-13       0.000000000000e+00       1.814417738157e-10      -9.327962846737e-13      -1.517402063843e-14 
   32       1.360254100074e-10       2.364327099805e-15       2.461322990843e-13       0.000000000000e+00       1.705633802588e-10      -8.290656226641e-13      -1.399989645417e-14 
   33       1.380194142866e-10       2.629808342814e-15       2.503632031713e-13       0.000000000000e+00       1.605993154765e-10      -7.397084936650e-13      -1.203105724397e-14 
   34       1.400312949967e-10       2.916573010745e-15       2.537352640823e-13       0.000000000000e+00       1.514073787042e-10      -6.350266454361e-13      -9.795940727560e-15 
   35       1.420672038121e-10       3.225425386650e-15       2.562980717429e-13       0.000000000000e+00       1.429388614878e-10      -5.187395327696e-13      -7.675929453741e-15 
   36       1.441304355941e-10       3.556725490259e-15       2.581142430793e-13       0.000000000000e+00       1.351240795038e-10      -4.064831315396e-13      -6.064282285446e-15 
   37       1.462192483673e-10       3.910796481443e-15       2.592418909273e-13       0.000000000000e+00       1.278592742739e-10      -3.131921808078e-13      -5.318105704878e-15 
   38       1.483333335391e-10       4.288239699000e-15       2.596405379040e-13       0.000000000000e+00       1.211247771272e-10      -2.388833560726e-13      -5.371275964600e-15 
   39       1.504683097566e-10       4.689715129823e-15       2.592340027626e-13       0.000000000000e+00       1.148984804406e-10      -1.781719513232e-13      -5.991276175790e-15 
   40       1.526131783660e-10       5.115854070403e-15       2.579344694290e-13       0.000000000000e+00       1.091199268111e-10      -1.239195632061e-13      -6.876801340376e-15 
   41       1.547555605317e-10       5.567255097489e-15       2.556494971226e-13       0.000000000000e+00       1.037112046755e-10      -6.913044877179e-14      -7.713388790298e-15 
   42       1.569009836576e-10       6.044476043117e-15       2.523079016303e-13       0.000000000000e+00       9.865584641567e-11      -1.368000218910e-14      -8.373392759341e-15 
   43       1.590588058334e-10       6.548035457789e-15       2.478408244680e-13       0.000000000000e+00       9.393999169703e-11       4.043129011439e-14      -8.773194243672e-15 
   44       1.612366599742e-10       7.078411650650e-15       2.421742457736e-13       0.000000000000e+00       8.952872432553e-11       9.089362974825e-14      -8.817943164344e-15 
   45       1.634399945269e-10       7.636052519882e-15       2.352437214419e-13       0.000000000000e+00       8.537844831568e-11       1.356175563036e-13      -8.439231514035e-15 
   46       1.656710765372e-10       8.221414367265e-15       2.270446229809e-13       0.000000000000e+00       8.148237308333e-11       1.745480464117e-13      -7.722803599870e-15 
   47       1.679292973553e-10       8.834930487369e-15       2.175963582651e-13       0.000000000000e+00       7.783577894973e-11       2.083665369543e-13      -6.818116521444e-15 
   48       1.702111369701e-10       9.476998160150e-15       2.069291346238e-13       0.000000000000e+00       7.442230517452e-11       2.380085049722e-13      -5.905069403866e-15 
   49       1.725099197269e-10       1.014797689006e-14       1.950844977998e-13       0.000000000000e+00       7.121308508967e-11       2.646794433324e-13      -5.195669092211e-15 
   50       1.748183778620e-10       1.084819896153e-14       1.820994300643e-13       0.000000000000e+00       6.817540280644e-11       2.895600437258e-13      -4.878139070262e-15 
   51       1.771377291740e-10       1.157800856856e-14       1.679523055700e-13       0.000000000000e+00       6.530343997175e-11       3.127903406703e-13      -4.927496659641e-15 
   52       1.794706411267e-10       1.233773026258e-14       1.526031968130e-13       0.000000000000e+00       6.259437989724e-11       3.342374398015e-13      -5.246438397594e-15 
   53       1.818185289009e-10       1.312765641114e-14       1.360088041681e-13       0.000000000000e+00       6.003920851644e-11       3.537835285367e-13      -5.717384838632e-15 
   54       1.841814432443e-10       1.394804601661e-14       1.181222211602e-13       0.000000000000e+00       5.762229759271e-11       3.713272262054e-13      -6.201437694833e-15 
   55       1.865589712673e-10       1.479912154360e-14       9.889908372783e-14       0.000000000000e+00       5.532615341156e-11       3.868181250703e-13      -6.569956500575e-15 
   56       1.889534578053e-10       1.568106118452e-14       7.831834462806e-14       0.000000000000e+00       5.314799912800e-11       4.003673686622e-13      -6.810863642362e-15 
   57       1.913673878727e-10       1.659400260346e-14       5.636624869584e-14       0.000000000000e+00       5.108658178629e-11       4.121669083371e-13      -6.946921129900e-15 
   58       1.938023727283e-10       1.753804352774e-14       3.303041470673e-14       0.000000000000e+00       4.913715690516e-11       4.224613048921e-13      -7.005647887032e-15 
   59       1.962590771911e-10       1.851324048893e-14       8.299849376300e-15       0.000000000000e+00       4.729127293847e-11       4.315503718476e-13      -7.019547782604e-15 
   60       1.987371469558e-10       1.951960756405e-14      -1.783503864058e-14       0.000000000000e+00       4.553655573578e-11       4.397918187294e-13      -7.026337661318e-15 
   61       2.012358527315e-10       2.055713298489e-14      -4.538304481177e-14       0.000000000000e+00       4.386013820664e-11       4.475197561415e-13      -7.060801189673e-15 
   62       2.037563560461e-10       2.162583617067e-14      -7.435417755176e-14       0.000000000000e+00       4.226033651109e-11       4.547728553846e-13      -7.127697824551e-15 
   63       2.062998253608e-10       2.272572132133e-14      -1.047580775098e-13       0.000000000000e+00       4.073722416440e-11       4.615095842072e-13      -7.223149942718e-15 
   64       2.088667151744e-10       2.385676000071e-14      -1.366034428593e-13       0.000000000000e+00       3.928912020034e-11       4.676869348776e-13      -7.342443508499e-15 
   65       2.114567160829e-10       2.501889044463e-14      -1.698980349727e-13       0.000000000000e+00       3.791248929136e-11       4.732603978238e-13      -7.479990398080e-15 
   66       2.140687048399e-10       2.621201686893e-14      -2.046486840959e-13       0.000000000000e+00       3.660184186874e-11       4.781839352736e-13      -7.629290723813e-15 
   67       2.167006944157e-10       2.743600877758e-14      -2.408612950233e-13       0.000000000000e+00       3.534963424280e-11       4.824099548954e-13      -7.782895158519e-15 
   68       2.193507253587e-10       2.869066560369e-14      -2.785381259490e-13       0.000000000000e+00       3.414828158894e-11       4.859044649566e-13      -7.933544562846e-15 
   69       2.220198612390e-10       2.997560385960e-14      -3.176689720666e-13       0.000000000000e+00       3.299689381052e-11       4.886961646439e-13      -8.077941231220e-15 
   70       2.247097132346e-10       3.129034577238e-14      -3.582381975210e-13       0.000000000000e+00       3.189573138176e-11       4.908372990834e-13      -8.213677628358e-15 
   71       2.274215271313e-10       3.263435037736e-14      -4.002272412525e-13       0.000000000000e+00       3.084416822381e-11       4.923897133521e-13      -8.338119268183e-15 
   72       2.301561574567e-10       3.400701193958e-14      -4.436145529315e-13       0.000000000000e+00       2.984064586241e-11       4.934252143928e-13      -8.448397148186e-15 
   73       2.329140416146e-10       3.540765837527e-14      -4.883755288937e-13       0.000000000000e+00       2.888262758558e-11       4.940259329279e-13      -8.541400183778e-15 
   74       2.356951740185e-10       3.683554967326e-14      -5.344824480753e-13       0.000000000000e+00       2.796655260123e-11       4.942846853743e-13      -8.613767642652e-15 
   75       2.384990802261e-10       3.828987631642e-14      -5.819044079475e-13       0.000000000000e+00       2.708779019485e-11       4.943053357576e-13      -8.661881579134e-15 
   76       2.413252333837e-10       3.976983355171e-14      -6.306129842541e-13       0.000000000000e+00       2.624178965060e-11       4.941826249936e-13      -8.682752483330e-15 
   77       2.441744484110e-10       4.127486332538e-14      -6.806005433630e-13       0.000000000000e+00       2.542787343877e-11       4.939366122453e-13      -8.676879405071e-15 
   78       2.470476962406e-10       4.280445380289e-14      -7.318651683815e-13       0.000000000000e+00       2.464605566178e-11       4.935668806140e-13      -8.645900065270e-15 
   79       2.499456675373e-10       4.435806741134e-14      -7.844052840448e-13       0.000000000000e+00       2.389588667736e-11       4.930719510352e-13      -8.591754487090e-15 
   80       2.528687559022e-10       4.593514081628e-14      -8.382197100223e-13       0.000000000000e+00       2.317643177635e-11       4.924492231539e-13      -8.516695746390e-15 
   81       2.558170410763e-10       4.753508489849e-14      -8.933077142233e-13       0.000000000000e+00       2.248624986044e-11       4.916949162017e-13      -8.423300722175e-15 
   82       2.587902721448e-10       4.915728473074e-14      -9.496690661039e-13       0.000000000000e+00       2.182337211994e-11       4.908040098722e-13      -8.314480847045e-15 
   83       2.617878507412e-10       5.080109955460e-14      -1.007304089973e-12       0.000000000000e+00       2.118528071150e-11       4.897701851971e-13      -8.193492857646e-15 
   84       2.648091812503e-10       5.246582574572e-14      -1.066208421311e-12       0.000000000000e+00       2.056952162508e-11       4.885884023771e-13      -8.063560370532e-15 
   85       2.678548249163e-10       5.415057870635e-14      -1.126356160166e-12       0.000000000000e+00       1.997570672709e-11       4.872632547968e-13      -7.926642980371e-15 
   86       2.709255071564e-10       5.585439125949e-14      -1.187714009700e-12       0.000000000000e+00       1.940380606344e-11       4.858018979667e-13      -7.784481865951e-15 
   87       2.740217571011e-10       5.757624828378e-14      -1.250246289665e-12       0.000000000000e+00       1.885353267335e-11       4.842115211170e-13      -7.638974969373e-15 
   88       2.771438969662e-10       5.931508606823e-14      -1.313914900688e-12       0.000000000000e+00       1.832433192573e-11       4.824993323920e-13      -7.492181205757e-15 
   89       2.802920314249e-10       6.106979166697e-14      -1.378679288553e-12       0.000000000000e+00       1.781537085557e-11       4.806725440449e-13      -7.346324672936e-15 
   90       2.834660369799e-10       6.283920225396e-14      -1.444496408477e-12       0.000000000000e+00       1.732552750035e-11       4.787383576325e-13      -7.203798861160e-15 
   91       2.866655513350e-10       6.462210447778e-14      -1.511320689399e-12       0.000000000000e+00       1.685338023646e-11       4.767039492097e-13      -7.067170862797e-15 
   92       2.898899627679e-10       6.641723381631e-14      -1.579103998254e-12       0.000000000000e+00       1.639719711554e-11       4.745764545241e-13      -6.939185582028e-15 
   93       2.931386914459e-10       6.822332195306e-14      -1.647799296527e-12       0.000000000000e+00       1.595534768406e-11       4.723626056362e-13      -6.822203116144e-15 
   94       2.964121048594e-10       7.003924845831e-14      -1.717372316571e-12       0.000000000000e+00       1.552763245425e-11       4.700676104192e-13      -6.716404961156e-15 
   95       2.997107210605e-10       7.186391083392e-14      -1.787791583539e-12       0.000000000000e+00       1.511413460017e-11       4.676960763781e-13      -6.621324547362e-15 
   96       3.030349224545e-10       7.369617853823e-14      -1.859024894349e-12       0.000000000000e+00       1.471481049164e-11       4.652523248809e-13      -6.536386506012e-15 
   97       3.063849491790e-10       7.553489299994e-14      -1.931039332655e-12       0.000000000000e+00       1.432948482998e-11       4.627403715684e-13      -6.460903098251e-15 
   98       3.097608924840e-10       7.737886763208e-14      -2.003801283805e-12       0.000000000000e+00       1.395784578385e-11       4.601639067641e-13      -6.394070644054e-15 
   99       3.131626881110e-10       7.922688784588e-14      -2.077276449807e-12       0.000000000000e+00       1.359944012489e-11       4.575262758841e-13      -6.334965951171e-15 
  100       3.165901096728e-10       8.107771106475e-14      -2.151429864296e-12       0.000000000000e+00       1.325366836356e-11       4.548304598467e-13      -6.282542744061e-15 
  101       3.200427620326e-10       8.293006673816e-14      -2.226225907496e-12       0.000000000000e+00       1.291977988486e-11       4.520790554823e-13      -6.235628092834e-15 
  102       3.235200746837e-10       8.478265635558e-14      -2.301628321184e-12       0.000000000000e+00       1.259686808410e-11       4.492742559432e-13      -6.192918842191e-15 
  103       3.270212951293e-10       8.663415346041e-14      -2.377600223658e-12       0.000000000000e+00       1.228386550261e-11       4.464178311135e-13      -6.152978040362e-15 
  104       3.305457182666e-10       8.848322154274e-14      -2.454103326310e-12       0.000000000000e+00       1.197978652753e-11       4.435117577621e-13      -6.114484192640e-15 
  105       3.340934240897e-10       9.032857044041e-14      -2.531095430605e-12       0.000000000000e+00       1.168450330616e-11       4.405602491427e-13      -6.077025060191e-15 
  106       3.376646277614e-10       9.216890761834e-14      -2.608532619306e-12       0.000000000000e+00       1.139806606592e-11       4.375679643180e-13      -6.040404933608e-15 
  107       3.412594485284e-10       9.400292117791e-14      -2.686370030785e-12       0.000000000000e+00       1.112046279225e-11       4.345393705990e-13      -6.004400600652e-15 
