# dimensionless total [l(l+1)/2pi] C_l's
# for l=2 to 3000, i.e. number of multipoles equal to 2999
#
# -> if you prefer output in CAMB/HealPix/LensPix units/order, set 'format' to 'camb' in input file
# -> if you don't want to see such a header, set 'headers' to 'no' in input file
# -> for CMB lensing (phi), these are C_l^phi-phi for the lensing potential.
#    Remember the conversion factors:
#    C_l^dd (deflection) = l(l+1) C_l^phi-phi
#    C_l^gg (shear/convergence) = 1/4 (l(l+1))^2 C_l^phi-phi
#
# 1:l     2:TT                     3:EE                     4:TE                     5:BB                     6:phiphi                 7:TPhi                   8:Ephi               
    2       1.362021092470e-10       6.174944855556e-15       4.331756288503e-13       0.000000000000e+00       8.338434478201e-09       4.412622412979e-10      -2.249278030996e-12 
    3       1.288080279304e-10       7.930532253247e-15       4.845381758192e-13       0.000000000000e+00       5.126678035384e-09       3.143625999405e-10      -1.708500542570e-12 
    4       1.217075791816e-10       6.881333018337e-15       4.514961690317e-13       0.000000000000e+00       3.564528793114e-09       2.386786333566e-10      -1.125681062692e-12 
    5       1.163607527561e-10       4.594782055385e-15       3.820526824209e-13       0.000000000000e+00       2.661080146148e-09       1.887840199387e-10      -6.337501505331e-13 
    6       1.126913401391e-10       2.547802691464e-15       3.039277821627e-13       0.000000000000e+00       2.079039873767e-09       1.537003051547e-10      -2.696086874564e-13 
    7       1.103265710283e-10       1.335866517762e-15       2.336434609755e-13       0.000000000000e+00       1.677812022952e-09       1.279149177067e-10      -3.543772973624e-14 
    8       1.089563051236e-10       8.224796947640e-16       1.788079722489e-13       0.000000000000e+00       1.387221517875e-09       1.083389193604e-10       8.615609059098e-14 
    9       1.083437274062e-10       6.413145677581e-16       1.413962815275e-13       0.000000000000e+00       1.168513818705e-09       9.312208247530e-11       1.227045540721e-13 
   10       1.082397653182e-10       5.405815166634e-16       1.199479441512e-13       0.000000000000e+00       9.988767549378e-10       8.106759529009e-11       1.049290298989e-13 
   11       1.085980324227e-10       4.484700968302e-16       1.110428568661e-13       0.000000000000e+00       8.420712722851e-10       7.164744343358e-11       6.160406414651e-14 
   12       1.092763856184e-10       3.818843307754e-16       1.106702639873e-13       0.000000000000e+00       7.358454977080e-10       6.342603300912e-11       1.426075754958e-14 
   13       1.101672128137e-10       3.552480246438e-16       1.153117195613e-13       0.000000000000e+00       6.486292078421e-10       5.670262002365e-11      -2.256258150046e-14 
   14       1.112660798736e-10       3.564851207972e-16       1.222669375240e-13       0.000000000000e+00       5.760526193752e-10       5.078962689449e-11      -4.317698227901e-14 
   15       1.125616833555e-10       3.678209862915e-16       1.297980590205e-13       0.000000000000e+00       5.149523302307e-10       4.582339833899e-11      -4.747322936784e-14 
   16       1.139618411306e-10       3.852155571427e-16       1.371545323629e-13       0.000000000000e+00       4.629947163443e-10       4.158751694971e-11      -3.990443928366e-14 
   17       1.154959120114e-10       4.172676748784e-16       1.442405332035e-13       0.000000000000e+00       4.184173959205e-10       3.791300732054e-11      -2.656171065048e-14 
   18       1.171077786633e-10       4.734232890396e-16       1.513795714340e-13       0.000000000000e+00       3.797213581820e-10       3.466729978988e-11      -1.336269407316e-14 
   19       1.188100758309e-10       5.549354483452e-16       1.589916473550e-13       0.000000000000e+00       3.462944569729e-10       3.181282101856e-11      -3.641963417657e-15 
   20       1.205952306429e-10       6.592382510843e-16       1.674779844315e-13       0.000000000000e+00       3.168502532676e-10       2.927737528900e-11       2.536863696170e-16 
   21       1.224592947361e-10       7.842860893263e-16       1.768676677965e-13       0.000000000000e+00       2.909274024018e-10       2.704042390131e-11      -1.169707869744e-15 
   22       1.243715148124e-10       9.276824480528e-16       1.869473689161e-13       0.000000000000e+00       2.679068529922e-10       2.505817336760e-11      -5.930717204331e-15 
   23       1.263457163095e-10       1.088796714896e-15       1.972330924878e-13       0.000000000000e+00       2.474729208477e-10       2.328609285821e-11      -1.189318217710e-14 
   24       1.283862029255e-10       1.267268943240e-15       2.070996803683e-13       0.000000000000e+00       2.291541069357e-10       2.166190802887e-11      -1.670686651208e-14 
   25       1.304803213224e-10       1.462546284937e-15       2.161896680169e-13       0.000000000000e+00       2.127353587905e-10       2.018655543904e-11      -1.925666396858e-14 
   26       1.325985254585e-10       1.674386971487e-15       2.242309959014e-13       0.000000000000e+00       1.979199158716e-10       1.886441789781e-11      -1.902019370687e-14 
   27       1.347511663418e-10       1.905248259924e-15       2.310945903493e-13       0.000000000000e+00       1.845304623770e-10       1.767612037684e-11      -1.669456964333e-14 
   28       1.369500299613e-10       2.158444567043e-15       2.367340765048e-13       0.000000000000e+00       1.723366449111e-10       1.658773975960e-11      -1.347309489849e-14 
   29       1.391991068162e-10       2.435754061749e-15       2.412425934275e-13       0.000000000000e+00       1.612764041217e-10       1.559380625702e-11      -1.015864767183e-14 
   30       1.414861560929e-10       2.738511000911e-15       2.448055443080e-13       0.000000000000e+00       1.512311884558e-10       1.468867715828e-11      -7.580647139620e-15 
   31       1.437892572976e-10       3.067989543204e-15       2.476213064568e-13       0.000000000000e+00       1.419963997877e-10       1.385858587167e-11      -6.520832326493e-15 
   32       1.461149233527e-10       3.425160778283e-15       2.496848321344e-13       0.000000000000e+00       1.335245241148e-10       1.309705390922e-11      -6.826064103617e-15 
   33       1.484718355430e-10       3.810829517729e-15       2.509232514828e-13       0.000000000000e+00       1.257558486928e-10       1.239360463869e-11      -7.949455350355e-15 
   34       1.508622353422e-10       4.225681691397e-15       2.512364809864e-13       0.000000000000e+00       1.185818812568e-10       1.173400631298e-11      -9.260928011773e-15 
   35       1.532902903642e-10       4.670268085524e-15       2.504488478058e-13       0.000000000000e+00       1.119659065760e-10       1.111794770381e-11      -1.037936252375e-14 
   36       1.557550048807e-10       5.144996559267e-15       2.483365459069e-13       0.000000000000e+00       1.058547959894e-10       1.054673906437e-11      -1.094481624134e-14 
   37       1.582506393677e-10       5.650260714849e-15       2.446869052073e-13       0.000000000000e+00       1.001689958646e-10       1.001897634387e-11      -1.064947337164e-14 
   38       1.607788201094e-10       6.186904088791e-15       2.394673045822e-13       0.000000000000e+00       9.489387452850e-11       9.532823460117e-12      -9.659732422733e-15 
   39       1.633392308225e-10       6.755903645548e-15       2.327121398623e-13       0.000000000000e+00       9.001280496946e-11       9.083961703038e-12      -8.337385940648e-15 
   40       1.659256006769e-10       7.358246327836e-15       2.244795132819e-13       0.000000000000e+00       8.547938429035e-11       8.664610602122e-12      -7.134125898117e-15 
   41       1.685294651389e-10       7.994876051687e-15       2.148362340375e-13       0.000000000000e+00       8.123360926128e-11       8.266077581332e-12      -6.475936283470e-15 
   42       1.711543673873e-10       8.666512433538e-15       2.038033563463e-13       0.000000000000e+00       7.726298071281e-11       7.888095880814e-12      -6.356983971587e-15 
   43       1.738052671722e-10       9.373774107016e-15       1.913954265619e-13       0.000000000000e+00       7.355691830652e-11       7.532042818806e-12      -6.623345307026e-15 
   44       1.764842809828e-10       1.011722425621e-14       1.776357996774e-13       0.000000000000e+00       7.008842078317e-11       7.198274553532e-12      -7.080568380061e-15 
   45       1.791916371147e-10       1.089737210095e-14       1.625373127251e-13       0.000000000000e+00       6.682370384732e-11       6.886299981760e-12      -7.534983991404e-15 
   46       1.819295936234e-10       1.171468513907e-14       1.460365856006e-13       0.000000000000e+00       6.375762953125e-11       6.595581978754e-12      -7.938310980193e-15 
   47       1.846991775357e-10       1.256957532565e-14       1.280406774258e-13       0.000000000000e+00       6.088664570314e-11       6.324818660543e-12      -8.281990918763e-15 
   48       1.874988053363e-10       1.346239208235e-14       1.084442987986e-13       0.000000000000e+00       5.819810178926e-11       6.071622974518e-12      -8.557109220168e-15 
   49       1.903240531233e-10       1.439341948081e-14       8.712903041849e-14       0.000000000000e+00       5.566957218266e-11       5.832445712902e-12      -8.754396831302e-15 
   50       1.931698429685e-10       1.536288011258e-14       6.398643581218e-14       0.000000000000e+00       5.327561038350e-11       5.603598699044e-12      -8.870786911829e-15 
   51       1.960382348774e-10       1.637095447220e-14       3.899660836864e-14       0.000000000000e+00       5.101174243701e-11       5.384830374686e-12      -8.931179080196e-15 
   52       1.989323525673e-10       1.741776196665e-14       1.216959435517e-14       0.000000000000e+00       4.887581671342e-11       5.176587689500e-12      -8.972585752832e-15 
   53       2.018540387315e-10       1.850335224596e-14      -1.647630282173e-14       0.000000000000e+00       4.686082324089e-11       4.978976139753e-12      -9.038396296736e-15 
   54       2.048037388984e-10       1.962770270114e-14      -4.691417956250e-14       0.000000000000e+00       4.495456679562e-11       4.791734554612e-12      -9.178687192512e-15 
   55       2.077812755116e-10       2.079078077156e-14      -7.911814709748e-14       0.000000000000e+00       4.314338399183e-11       4.614390710711e-12      -9.435493955835e-15 
   56       2.107886614278e-10       2.199275472467e-14      -1.130957595584e-13       0.000000000000e+00       4.142512480759e-11       4.446831207810e-12      -9.793631814602e-15 
   57       2.138277819219e-10       2.323383085604e-14      -1.488630408505e-13       0.000000000000e+00       3.979882334041e-11       4.288828998719e-12      -1.021820110711e-14 
   58       2.168994860171e-10       2.451419329018e-14      -1.864352763233e-13       0.000000000000e+00       3.826077068719e-11       4.139857191487e-12      -1.066828538615e-14 
   59       2.200035050276e-10       2.583400400364e-14      -2.258270576945e-13       0.000000000000e+00       3.680434559276e-11       3.999070880972e-12      -1.109667567649e-14 
   60       2.231383711013e-10       2.719340284797e-14      -2.670523279725e-13       0.000000000000e+00       3.541984509848e-11       3.865288980395e-12      -1.144959473242e-14 
   61       2.263023384177e-10       2.859238459968e-14      -3.101207673965e-13       0.000000000000e+00       3.409717687655e-11       3.737308221210e-12      -1.167915714726e-14 
   62       2.294965726871e-10       3.003039780849e-14      -3.550259016747e-13       0.000000000000e+00       3.283502554179e-11       3.614968615671e-12      -1.178464171825e-14 
   63       2.327225362795e-10       3.150665553735e-14      -4.017543920822e-13       0.000000000000e+00       3.163345266335e-11       3.498295996942e-12      -1.178003595742e-14 
   64       2.359810000827e-10       3.302024658806e-14      -4.502893891417e-13       0.000000000000e+00       3.049113963828e-11       3.387183476375e-12      -1.168224352896e-14 
   65       2.392719938591e-10       3.457013162247e-14      -5.006104614504e-13       0.000000000000e+00       2.940530913923e-11       3.281383814521e-12      -1.151121260571e-14 
   66       2.425947566012e-10       3.615513928371e-14      -5.526935245065e-13       0.000000000000e+00       2.837164656213e-11       3.180501792140e-12      -1.129006422560e-14 
   67       2.459476868886e-10       3.777396231731e-14      -6.065107695352e-13       0.000000000000e+00       2.738422147393e-11       3.083986581214e-12      -1.104522064816e-14 
   68       2.493291641571e-10       3.942532604060e-14      -6.620343263814e-13       0.000000000000e+00       2.643706985121e-11       2.991280941017e-12      -1.080128355848e-14 
   69       2.527403167173e-10       4.110854206060e-14      -7.192482731393e-13       0.000000000000e+00       2.552948867494e-11       2.902320964293e-12      -1.056417663631e-14 
   70       2.561827280045e-10       4.282306030137e-14      -7.781389433111e-13       0.000000000000e+00       2.466167797451e-11       2.817124353028e-12      -1.033480211864e-14 
   71       2.596575884117e-10       4.456830710274e-14      -8.386914309442e-13       0.000000000000e+00       2.383313952977e-11       2.735638999737e-12      -1.011398291497e-14 
   72       2.631656679199e-10       4.634368574935e-14      -9.008896149575e-13       0.000000000000e+00       2.304264079424e-11       2.657739369351e-12      -9.902456688783e-15 
   73       2.667072887284e-10       4.814857699972e-14      -9.647161834683e-13       0.000000000000e+00       2.228817881828e-11       2.583222881101e-12      -9.700869938976e-15 
   74       2.702822978850e-10       4.998233961536e-14      -1.030152658119e-12       0.000000000000e+00       2.156694417223e-11       2.511806290397e-12      -9.509772081370e-15 
   75       2.738900399159e-10       5.184431088982e-14      -1.097179418406e-12       0.000000000000e+00       2.087528486962e-11       2.443122070718e-12      -9.329609530169e-15 
   76       2.775298079725e-10       5.373371448328e-14      -1.165773460234e-12       0.000000000000e+00       2.020961167580e-11       2.376811821983e-12      -9.160608102009e-15 
   77       2.812023527490e-10       5.564936335353e-14      -1.235901145947e-12       0.000000000000e+00       1.956938437386e-11       2.312834158558e-12      -9.002408554107e-15 
   78       2.849086002760e-10       5.758990336258e-14      -1.307524170287e-12       0.000000000000e+00       1.895460704442e-11       2.251206653575e-12      -8.854353523191e-15 
   79       2.886491805417e-10       5.955389981579e-14      -1.380601687096e-12       0.000000000000e+00       1.836491848864e-11       2.191912191108e-12      -8.715585231105e-15 
   80       2.924244099344e-10       6.153983609020e-14      -1.455090287188e-12       0.000000000000e+00       1.779957545525e-11       2.134897337661e-12      -8.585037276248e-15 
   81       2.962342736847e-10       6.354611226285e-14      -1.530943976209e-12       0.000000000000e+00       1.725743586762e-11       2.080070713666e-12      -8.461426425010e-15 
   82       3.000784083089e-10       6.557104373902e-14      -1.608114152504e-12       0.000000000000e+00       1.673694205079e-11       2.027301364962e-12      -8.343244403213e-15 
   83       3.039560840507e-10       6.761285988059e-14      -1.686549584984e-12       0.000000000000e+00       1.623610395851e-11       1.976417134298e-12      -8.228749687544e-15 
   84       3.078665401042e-10       6.966978442876e-14      -1.766198440812e-12       0.000000000000e+00       1.575298196559e-11       1.927248785183e-12      -8.116453813537e-15 
   85       3.118100925907e-10       7.174029509555e-14      -1.847014803184e-12       0.000000000000e+00       1.528726394605e-11       1.879774345238e-12      -8.006690910253e-15 
   86       3.157871789240e-10       7.382290469226e-14      -1.928953198501e-12       0.000000000000e+00       1.483892010434e-11       1.833995817386e-12      -7.900294520987e-15 
   87       3.197980099052e-10       7.591608316418e-14      -2.011966654747e-12       0.000000000000e+00       1.440771840218e-11       1.789894708152e-12      -7.798126322216e-15 
   88       3.238425580943e-10       7.801825759366e-14      -2.096006713810e-12       0.000000000000e+00       1.399321618162e-11       1.747431168105e-12      -7.701076226235e-15 
   89       3.279205461816e-10       8.012781220307e-14      -2.181023443794e-12       0.000000000000e+00       1.359475178819e-11       1.706543132296e-12      -7.610062483801e-15 
   90       3.320314353598e-10       8.224308835780e-14      -2.266965451339e-12       0.000000000000e+00       1.321143619396e-11       1.667145460692e-12      -7.526031786770e-15 
   91       3.361744136953e-10       8.436238456924e-14      -2.353779893933e-12       0.000000000000e+00       1.284214462070e-11       1.629129078619e-12      -7.449959370740e-15 
   92       3.403483844998e-10       8.648395649784e-14      -2.441412492232e-12       0.000000000000e+00       1.248550816291e-11       1.592360117196e-12      -7.382849117687e-15 
   93       3.445523018808e-10       8.860603590771e-14      -2.529807588018e-12       0.000000000000e+00       1.214023792632e-11       1.556711462312e-12      -7.325394281269e-15 
   94       3.487862603785e-10       9.072689078522e-14      -2.618908301309e-12       0.000000000000e+00       1.180617140403e-11       1.522164696322e-12      -7.276901069960e-15 
   95       3.530505484728e-10       9.284477430989e-14      -2.708656419757e-12       0.000000000000e+00       1.148336871959e-11       1.488721970486e-12      -7.236202607212e-15 
   96       3.573453092368e-10       9.495790696795e-14      -2.798992367884e-12       0.000000000000e+00       1.117179037274e-11       1.456374553410e-12      -7.201979388914e-15 
   97       3.616705334736e-10       9.706447681550e-14      -2.889855220021e-12       0.000000000000e+00       1.087129342680e-11       1.425102416349e-12      -7.172754727452e-15 
   98       3.660260528541e-10       9.916263974164e-14      -2.981182713253e-12       0.000000000000e+00       1.058162769622e-11       1.394873818511e-12      -7.146890195772e-15 
   99       3.704115330539e-10       1.012505197316e-13      -3.072911260360e-12       0.000000000000e+00       1.030243193403e-11       1.365644892367e-12      -7.122581071446e-15 
  100       3.748264668908e-10       1.033262091301e-13      -3.164975962761e-12       0.000000000000e+00       1.003323001936e-11       1.337359228948e-12      -7.097851780728e-15 
  101       3.792701674622e-10       1.053877689039e-13      -3.257310623457e-12       0.000000000000e+00       9.773427144889e-12       1.309947463157e-12      -7.070551342625e-15 
  102       3.837417612823e-10       1.074332289057e-13      -3.349847759972e-12       0.000000000000e+00       9.522306004346e-12       1.283326859067e-12      -7.038348812953e-15 
  103       3.882401814193e-10       1.094605881368e-13      -3.442518617300e-12       0.000000000000e+00       9.279022980000e-12       1.257400895231e-12      -6.998728728405e-15 
  104       3.927643857401e-10       1.114678642558e-13      -3.535253943498e-12       0.000000000000e+00       9.042798972773e-12       1.232082136483e-12      -6.949587053494e-15 
  105       3.973140599998e-10       1.134532491544e-13      -3.627986407938e-12       0.000000000000e+00       8.813529462657e-12       1.207365261291e-12      -6.891120518336e-15 
  106       4.018889973776e-10       1.154149749860e-13      -3.720648535377e-12       0.000000000000e+00       8.591250134595e-12       1.183263172148e-12      -6.824185197423e-15 
  107       4.064888775148e-10       1.173512675917e-13      -3.813171993536e-12       0.000000000000e+00       8.375947941573e-12       1.159784433114e-12      -6.749720816060e-15 
