# dimensionless total [l(l+1)/2pi] C_l's
# for l=2 to 3000, i.e. number of multipoles equal to 2999
#
# -> if you prefer output in CAMB/HealPix/LensPix units/order, set 'format' to 'camb' in input file
# -> if you don't want to see such a header, set 'headers' to 'no' in input file
# -> for CMB lensing (phi), these are C_l^phi-phi for the lensing potential.
#    Remember the conversion factors:
#    C_l^dd (deflection) = l(l+1) C_l^phi-phi
#    C_l^gg (shear/convergence) = 1/4 (l(l+1))^2 C_l^phi-phi
#
# 1:l     2:TT                     3:EE                     4:TE                     5:BB                     6:phiphi                 7:TPhi                   8:Ephi               
    2       2.124395282744e-10       4.717262215801e-15       2.984865167590e-13       0.000000000000e+00       6.515678756353e-09       7.470679717032e-10      -1.845791840615e-12 
    3       1.859608645327e-10       5.292737223952e-15       3.658854502774e-13       0.000000000000e+00       4.090173906223e-09       5.160806145823e-10      -1.280763315459e-12 
    4       1.662994312416e-10       3.888796149762e-15       3.480838440481e-13       0.000000000000e+00       2.867911240823e-09       3.843130454545e-10      -7.145912857885e-13 
    5       1.524357022827e-10       2.209212918499e-15       2.941736061985e-13       0.000000000000e+00       2.151235090615e-09       3.000487350116e-10      -2.866236685879e-13 
    6       1.427720966186e-10       1.135568830849e-15       2.330012034103e-13       0.000000000000e+00       1.686662979836e-09       2.420723751095e-10      -1.981019634268e-14 
    7       1.361046667050e-10       6.687398291458e-16       1.804880456038e-13       0.000000000000e+00       1.365178344079e-09       2.002071444415e-10       1.061860259887e-13 
    8       1.314959842092e-10       4.935646382472e-16       1.428943933663e-13       0.000000000000e+00       1.131442197556e-09       1.688103901698e-10       1.312520524349e-13 
    9       1.283482228098e-10       3.951048931199e-16       1.207370364047e-13       0.000000000000e+00       9.548565652031e-10       1.445175416937e-10       9.947249384886e-14 
   10       1.262964062158e-10       3.208488781653e-16       1.114356868505e-13       0.000000000000e+00       8.175886033062e-10       1.252725469796e-10       4.859974241330e-14 
   11       1.250678679304e-10       2.796365499670e-16       1.112107069843e-13       0.000000000000e+00       6.990273971883e-10       1.102906114600e-10       4.927126601939e-15 
   12       1.244350709612e-10       2.709326648071e-16       1.164541788758e-13       0.000000000000e+00       6.120892974457e-10       9.725990551053e-11      -2.135459040684e-14 
   13       1.243048967383e-10       2.832745568158e-16       1.243765159919e-13       0.000000000000e+00       5.405091340105e-10       8.650290949676e-11      -2.829491140361e-14 
   14       1.245527295776e-10       3.119058334568e-16       1.331748942298e-13       0.000000000000e+00       4.808017041816e-10       7.742899516552e-11      -2.195981147200e-14 
   15       1.250886509685e-10       3.603578049463e-16       1.421948027362e-13       0.000000000000e+00       4.304237565548e-10       6.955519548651e-11      -1.081022902940e-14 
   16       1.259065020159e-10       4.318705825687e-16       1.514552887722e-13       0.000000000000e+00       3.874928019193e-10       6.286552847565e-11      -1.353215501523e-15 
   17       1.269726304456e-10       5.260539054105e-16       1.611587179056e-13       0.000000000000e+00       3.505883969694e-10       5.711799478115e-11       2.747622405311e-15 
   18       1.281842392154e-10       6.413499004778e-16       1.715342232580e-13       0.000000000000e+00       3.185001003832e-10       5.208685290857e-11       1.237936818729e-15 
   19       1.295545571532e-10       7.776854995892e-16       1.825474890080e-13       0.000000000000e+00       2.907289762850e-10       4.769694759628e-11      -3.863375335925e-15 
   20       1.310709128898e-10       9.349589491696e-16       1.939533664364e-13       0.000000000000e+00       2.662327202325e-10       4.380046513417e-11      -9.459822302365e-15 
   21       1.327240048750e-10       1.113069937644e-15       2.052730781330e-13       0.000000000000e+00       2.446379690664e-10       4.036477079519e-11      -1.356461574350e-14 
   22       1.344697834370e-10       1.311937243514e-15       2.159038162852e-13       0.000000000000e+00       2.254357734744e-10       3.733229139629e-11      -1.470670945352e-14 
   23       1.363142504597e-10       1.533044218732e-15       2.255377730380e-13       0.000000000000e+00       2.083691668027e-10       3.463019777799e-11      -1.333437940655e-14 
   24       1.382514795254e-10       1.778525657338e-15       2.339835745647e-13       0.000000000000e+00       1.930517861037e-10       3.215287561017e-11      -1.075797890450e-14 
   25       1.402662410697e-10       2.050636027335e-15       2.412210284568e-13       0.000000000000e+00       1.793087882618e-10       2.989365563744e-11      -8.212587461437e-15 
   26       1.423269689460e-10       2.351588064077e-15       2.473284970866e-13       0.000000000000e+00       1.668965441393e-10       2.785515050975e-11      -6.870382173735e-15 
   27       1.444471504229e-10       2.682639578276e-15       2.524638362669e-13       0.000000000000e+00       1.556691634974e-10       2.602261840257e-11      -6.813029098010e-15 
   28       1.466411207702e-10       3.044753460215e-15       2.567855597262e-13       0.000000000000e+00       1.454358995407e-10       2.436293710587e-11      -7.690413102765e-15 
   29       1.489117625506e-10       3.439307203343e-15       2.601710185170e-13       0.000000000000e+00       1.361462993045e-10       2.286325722492e-11      -9.010348002223e-15 
   30       1.512418690948e-10       3.867797033342e-15       2.623783785938e-13       0.000000000000e+00       1.277026583196e-10       2.150081263292e-11      -1.010913731974e-14 
   31       1.536023745131e-10       4.331614191452e-15       2.631520608973e-13       0.000000000000e+00       1.199353043854e-10       2.024093673519e-11      -1.034171002879e-14 
   32       1.559971417297e-10       4.831693287914e-15       2.623620980820e-13       0.000000000000e+00       1.128052787463e-10       1.907693075373e-11      -9.810032409899e-15 
   33       1.584321008429e-10       5.368712306627e-15       2.599154145629e-13       0.000000000000e+00       1.062631444363e-10       1.800278766658e-11      -8.914742350878e-15 
   34       1.609054829593e-10       5.943307797442e-15       2.557447870664e-13       0.000000000000e+00       1.002185668827e-10       1.700616862257e-11      -8.089874514096e-15 
   35       1.634188577553e-10       6.556555941862e-15       2.498953114370e-13       0.000000000000e+00       9.464122409197e-11       1.608362108692e-11      -7.502811185633e-15 
   36       1.659680648694e-10       7.209653442416e-15       2.424713816437e-13       0.000000000000e+00       8.948696501671e-11       1.522938764847e-11      -7.254061847501e-15 
   37       1.685447758507e-10       7.903758864227e-15       2.335727946687e-13       0.000000000000e+00       8.468944049607e-11       1.443406434021e-11      -7.416981129197e-15 
   38       1.711553605252e-10       8.639883849665e-15       2.231450630561e-13       0.000000000000e+00       8.023664777944e-11       1.369598200723e-11      -7.900787979434e-15 
   39       1.738070313079e-10       9.418962523223e-15       2.110797659161e-13       0.000000000000e+00       7.611484171915e-11       1.301279726393e-11      -8.539587061452e-15 
   40       1.765020792667e-10       1.024187683221e-14       1.972530685686e-13       0.000000000000e+00       7.228524451585e-11       1.237797737059e-11      -9.125502644131e-15 
   41       1.792389452359e-10       1.110940014436e-14       1.815451828367e-13       0.000000000000e+00       6.869762302077e-11       1.178305548542e-11      -9.467772650862e-15 
   42       1.820171946985e-10       1.202201316809e-14       1.639092800146e-13       0.000000000000e+00       6.534159071467e-11       1.122615859628e-11      -9.599769738278e-15 
   43       1.848332226408e-10       1.298002306000e-14       1.443229717576e-13       0.000000000000e+00       6.220832732768e-11       1.070564012404e-11      -9.634749588339e-15 
   44       1.876783257076e-10       1.398360510710e-14       1.227697797654e-13       0.000000000000e+00       5.927517523103e-11       1.021751636672e-11      -9.711304221453e-15 
   45       1.905426728731e-10       1.503288895989e-14       9.923293198958e-14       0.000000000000e+00       5.651375666895e-11       9.756906548291e-12      -9.957001842342e-15 
   46       1.934296852040e-10       1.612826379506e-14       7.367404448535e-14       0.000000000000e+00       5.391981594451e-11       9.323303482231e-12      -1.036280034884e-14 
   47       1.963451955626e-10       1.727015303648e-14       4.604842364829e-14       0.000000000000e+00       5.149042448378e-11       8.916563086346e-12      -1.087364622753e-14 
   48       1.992932175286e-10       1.845892808468e-14       1.631077164143e-14       0.000000000000e+00       4.921498008723e-11       8.535326133658e-12      -1.142241948315e-14 
   49       2.022757532871e-10       1.969490699613e-14      -1.558497289499e-14       0.000000000000e+00       4.707463596233e-11       8.176926369714e-12      -1.192925669965e-14 
   50       2.052935209573e-10       2.097831725008e-14      -4.967763637807e-14       0.000000000000e+00       4.504798988975e-11       7.838227283113e-12      -1.231997255888e-14 
   51       2.083488150218e-10       2.230917519842e-14      -8.597188582352e-14       0.000000000000e+00       4.313129689962e-11       7.518613351518e-12      -1.258878978084e-14 
   52       2.114430902515e-10       2.368737161086e-14      -1.244581203073e-13       0.000000000000e+00       4.132275614557e-11       7.217651910698e-12      -1.275146638618e-14 
   53       2.145759648134e-10       2.511270178810e-14      -1.651197706916e-13       0.000000000000e+00       3.961646047911e-11       6.934188427133e-12      -1.282790198970e-14 
   54       2.177450714267e-10       2.658486255110e-14      -2.079330750202e-13       0.000000000000e+00       3.800212007672e-11       6.666298316655e-12      -1.284235961238e-14 
   55       2.209474255409e-10       2.810341059188e-14      -2.528726826411e-13       0.000000000000e+00       3.646820382394e-11       6.411853897254e-12      -1.281839870489e-14 
   56       2.241842688731e-10       2.966763230700e-14      -2.999306114105e-13       0.000000000000e+00       3.501291047000e-11       6.170500558342e-12      -1.276169203737e-14 
   57       2.274571683975e-10       3.127663635440e-14      -3.491016064529e-13       0.000000000000e+00       3.363543885468e-11       5.942087120920e-12      -1.267332867732e-14 
   58       2.307665169579e-10       3.292938504086e-14      -4.003777264775e-13       0.000000000000e+00       3.233266884393e-11       5.726070027027e-12      -1.255474419721e-14 
   59       2.341114435284e-10       3.462468980592e-14      -4.537483462660e-13       0.000000000000e+00       3.109901811633e-11       5.521489124644e-12      -1.240773642975e-14 
   60       2.374897234742e-10       3.636120670567e-14      -5.092001591630e-13       0.000000000000e+00       2.992629894956e-11       5.326943452599e-12      -1.223448122323e-14 
   61       2.408990099407e-10       3.813756930862e-14      -5.667165821871e-13       0.000000000000e+00       2.880599199642e-11       5.140980084719e-12      -1.203784455366e-14 
   62       2.443410540243e-10       3.995283245785e-14      -6.262758096999e-13       0.000000000000e+00       2.773698800450e-11       4.963417435887e-12      -1.182236508349e-14 
   63       2.478182769315e-10       4.180612055537e-14      -6.878523252914e-13       0.000000000000e+00       2.671933758190e-11       4.794277367898e-12      -1.159352111052e-14 
   64       2.513324855652e-10       4.369649878660e-14      -7.514174444665e-13       0.000000000000e+00       2.575192234003e-11       4.633387451715e-12      -1.135747833272e-14 
   65       2.548848247038e-10       4.562297296422e-14      -8.169392981805e-13       0.000000000000e+00       2.483238836928e-11       4.480369858433e-12      -1.112111500674e-14 
   66       2.584757291807e-10       4.758448937202e-14      -8.843828163732e-13       0.000000000000e+00       2.395707971475e-11       4.334630250239e-12      -1.089204710637e-14 
   67       2.621048760635e-10       4.957993460873e-14      -9.537097115041e-13       0.000000000000e+00       2.312097185195e-11       4.195346671376e-12      -1.067865348112e-14 
   68       2.657717209140e-10       5.160807371656e-14      -1.024878842049e-12       0.000000000000e+00       2.231901204826e-11       4.061691534364e-12      -1.048827653162e-14 
   69       2.694773396427e-10       5.366735035801e-14      -1.097847425321e-12       0.000000000000e+00       2.155060452789e-11       3.933574642698e-12      -1.032134462886e-14 
   70       2.732228756701e-10       5.575604568305e-14      -1.172570041953e-12       0.000000000000e+00       2.081591878796e-11       3.811031459101e-12      -1.017609846624e-14 
   71       2.770089565733e-10       5.787233475846e-14      -1.248998271045e-12       0.000000000000e+00       2.011453312909e-11       3.693998276152e-12      -1.005028904974e-14 
   72       2.808356612043e-10       6.001428483328e-14      -1.327080683425e-12       0.000000000000e+00       1.944540411282e-11       3.582307068759e-12      -9.941156194431e-15 
   73       2.847024868063e-10       6.217985360420e-14      -1.406762834895e-12       0.000000000000e+00       1.880683601903e-11       3.475680346641e-12      -9.845407021029e-15 
   74       2.886083161316e-10       6.436688748105e-14      -1.487987259487e-12       0.000000000000e+00       1.819645030344e-11       3.373726006799e-12      -9.759194452433e-15 
   75       2.925513845591e-10       6.657311985224e-14      -1.570693462714e-12       0.000000000000e+00       1.761115505499e-11       3.275932185999e-12      -9.678095710258e-15 
   76       2.965299707121e-10       6.879625171696e-14      -1.654819082486e-12       0.000000000000e+00       1.704791113150e-11       3.181793566999e-12      -9.597993196065e-15 
   77       3.005446863951e-10       7.103421439146e-14      -1.740303631182e-12       0.000000000000e+00       1.650625937351e-11       3.091228266766e-12      -9.517950117703e-15 
   78       3.045965464374e-10       7.328495177974e-14      -1.827085426875e-12       0.000000000000e+00       1.598620089151e-11       3.004227971026e-12      -9.437822616143e-15 
   79       3.086862644823e-10       7.554634221189e-14      -1.915100503120e-12       0.000000000000e+00       1.548742729531e-11       2.920730812390e-12      -9.357400950177e-15 
   80       3.128142349403e-10       7.781619839848e-14      -2.004282626155e-12       0.000000000000e+00       1.500930648802e-11       2.840618918398e-12      -9.276406497089e-15 
   81       3.169805149432e-10       8.009226738503e-14      -2.094563312097e-12       0.000000000000e+00       1.455086846002e-11       2.763715959560e-12      -9.194488753317e-15 
   82       3.211848062965e-10       8.237223050644e-14      -2.185871844133e-12       0.000000000000e+00       1.411079108289e-11       2.689784697404e-12      -9.111222335120e-15 
   83       3.254264374332e-10       8.465370334141e-14      -2.278135289722e-12       0.000000000000e+00       1.368738590346e-11       2.618524532512e-12      -9.026103979250e-15 
   84       3.297046566096e-10       8.693426619165e-14      -2.371278571298e-12       0.000000000000e+00       1.327900729653e-11       2.549646193682e-12      -8.938768504951e-15 
   85       3.340196068699e-10       8.921156142477e-14      -2.465224654177e-12       0.000000000000e+00       1.288538897508e-11       2.483115402868e-12      -8.849684405579e-15 
   86       3.383714803738e-10       9.148321226026e-14      -2.559894421477e-12       0.000000000000e+00       1.250650402930e-11       2.418945296996e-12      -8.759568608364e-15 
   87       3.427602088977e-10       9.374679414014e-14      -2.655206641203e-12       0.000000000000e+00       1.214215428116e-11       2.357121739946e-12      -8.669178436491e-15 
   88       3.471854510195e-10       9.599983519639e-14      -2.751077984348e-12       0.000000000000e+00       1.179196319366e-11       2.297602167077e-12      -8.579312289785e-15 
   89       3.516465793024e-10       9.823981671839e-14      -2.847423042985e-12       0.000000000000e+00       1.145536878011e-11       2.240314429766e-12      -8.490810325405e-15 
   90       3.561426674792e-10       1.004641736205e-13      -2.944154348365e-12       0.000000000000e+00       1.113161651331e-11       2.185155639936e-12      -8.404555138530e-15 
   91       3.606724776371e-10       1.026702949092e-13      -3.041182389012e-12       0.000000000000e+00       1.081975223485e-11       2.131991014589e-12      -8.321472443050e-15 
   92       3.652344474011e-10       1.048555241511e-13      -3.138415628816e-12       0.000000000000e+00       1.051861506433e-11       2.080652720337e-12      -8.242531752253e-15 
   93       3.698270624807e-10       1.070172222582e-13      -3.235761841447e-12       0.000000000000e+00       1.022711194587e-11       2.030979201899e-12      -8.168464920993e-15 
   94       3.744500662360e-10       1.091529656321e-13      -3.333132303852e-12       0.000000000000e+00       9.945103922941e-12       1.982942443483e-12      -8.098871870854e-15 
   95       3.791034091816e-10       1.112603788241e-13      -3.430438269850e-12       0.000000000000e+00       9.672640669444e-12       1.936537800242e-12      -8.032980998681e-15 
   96       3.837868724095e-10       1.133370761768e-13      -3.527589745696e-12       0.000000000000e+00       9.409687547840e-12       1.891744628017e-12      -7.969916181576e-15 
   97       3.885000600629e-10       1.153806631474e-13      -3.624495526244e-12       0.000000000000e+00       9.156122384371e-12       1.848525683587e-12      -7.908693584717e-15 
   98       3.932423918109e-10       1.173887376304e-13      -3.721063231110e-12       0.000000000000e+00       8.911732244292e-12       1.806826524918e-12      -7.848218469178e-15 
   99       3.980130953220e-10       1.193588912806e-13      -3.817199340841e-12       0.000000000000e+00       8.676210207107e-12       1.766574911413e-12      -7.787281999752e-15 
  100       4.028111987383e-10       1.212887108359e-13      -3.912809233076e-12       0.000000000000e+00       8.449152141799e-12       1.727680204159e-12      -7.724558052766e-15 
  101       4.076355231499e-10       1.231757794401e-13      -4.007797218709e-12       0.000000000000e+00       8.230053482066e-12       1.690032766174e-12      -7.658600023904e-15 
  102       4.124846750685e-10       1.250176779663e-13      -4.102066578059e-12       0.000000000000e+00       8.018306001551e-12       1.653503362661e-12      -7.587837636027e-15 
  103       4.173570389020e-10       1.268119863390e-13      -4.195519597028e-12       0.000000000000e+00       7.813194589076e-12       1.617942561253e-12      -7.510573746994e-15 
  104       4.222510294283e-10       1.285563504437e-13      -4.288058545888e-12       0.000000000000e+00       7.614058789418e-12       1.583215751374e-12      -7.425434551463e-15 
  105       4.271659042714e-10       1.302486902976e-13      -4.379588688309e-12       0.000000000000e+00       7.420809223712e-12       1.549314881688e-12      -7.332796323598e-15 
  106       4.321010476593e-10       1.318870225968e-13      -4.470015748120e-12       0.000000000000e+00       7.233475242789e-12       1.516260768912e-12      -7.233546352596e-15 
  107       4.370557156128e-10       1.334693996603e-13      -4.559245048947e-12       0.000000000000e+00       7.052044994076e-12       1.484068620766e-12      -7.128648527985e-15 
