# dimensionless total [l(l+1)/2pi] C_l's
# for l=2 to 3000, i.e. number of multipoles equal to 2999
#
# -> if you prefer output in CAMB/HealPix/LensPix units/order, set 'format' to 'camb' in input file
# -> if you don't want to see such a header, set 'headers' to 'no' in input file
# -> for CMB lensing (phi), these are C_l^phi-phi for the lensing potential.
#    Remember the conversion factors:
#    C_l^dd (deflection) = l(l+1) C_l^phi-phi
#    C_l^gg (shear/convergence) = 1/4 (l(l+1))^2 C_l^phi-phi
#
# 1:l     2:TT                     3:EE                     4:TE                     5:BB                     6:phiphi                 7:TPhi                   8:Ephi               
    2       1.170909789688e-10       2.798079743828e-15       3.158741749897e-13       0.000000000000e+00       9.303203907239e-09       3.037987135634e-10      -1.542196942846e-12 
    3       1.144590789378e-10       3.758528027695e-15       3.475131387347e-13       0.000000000000e+00       5.877852926351e-09       2.253879341992e-10      -1.194967711014e-12 
    4       1.110435942736e-10       3.449315098931e-15       3.249449816214e-13       0.000000000000e+00       4.136299350768e-09       1.751895755776e-10      -8.172456447296e-13 
    5       1.083804462897e-10       2.460491475993e-15       2.798726425491e-13       0.000000000000e+00       3.113124859493e-09       1.409894695827e-10      -4.901663522486e-13 
    6       1.066137554497e-10       1.466005020842e-15       2.298511911762e-13       0.000000000000e+00       2.447095191648e-09       1.164252772216e-10      -2.384578585206e-13 
    7       1.055987302471e-10       8.137024591771e-16       1.851912238730e-13       0.000000000000e+00       1.984546252790e-09       9.803469325918e-11      -6.684883896239e-14 
    8       1.051924361140e-10       5.074848489930e-16       1.504769484143e-13       0.000000000000e+00       1.648900852069e-09       8.388537236764e-11       3.227180871198e-14 
    9       1.052546213364e-10       3.973026099419e-16       1.268972082981e-13       0.000000000000e+00       1.396533573220e-09       7.280594553138e-11       7.341505614155e-14 
   10       1.056424129162e-10       3.496050427775e-16       1.136888995495e-13       0.000000000000e+00       1.200658192974e-09       6.395429028360e-11       7.413135701433e-14 
   11       1.063011172416e-10       3.097565755125e-16       1.090371305109e-13       0.000000000000e+00       9.903527551206e-10       5.674546483174e-11       5.221918631763e-14 
   12       1.071884554421e-10       2.794399535226e-16       1.106970927569e-13       0.000000000000e+00       8.679560589129e-10       5.041138990914e-11       2.170779408966e-14 
   13       1.082101963395e-10       2.722024464287e-16       1.165314843845e-13       0.000000000000e+00       7.672873517795e-10       4.519225206531e-11      -6.148928861120e-15 
   14       1.093440851056e-10       2.899512227109e-16       1.248761127869e-13       0.000000000000e+00       6.833808801228e-10       4.084250919257e-11      -2.530497595505e-14 
   15       1.106357563526e-10       3.251922162326e-16       1.344769956748e-13       0.000000000000e+00       6.126325509861e-10       3.713054382636e-11      -3.391644348659e-14 
   16       1.119836460153e-10       3.721116958821e-16       1.445425037165e-13       0.000000000000e+00       5.523716521028e-10       3.388697162887e-11      -3.329783824830e-14 
   17       1.133874099956e-10       4.315971404914e-16       1.547604156686e-13       0.000000000000e+00       5.005834079653e-10       3.101437145928e-11      -2.660630919952e-14 
   18       1.148601699407e-10       5.085989870908e-16       1.650440622769e-13       0.000000000000e+00       4.555437698918e-10       2.846187503146e-11      -1.768201956427e-14 
   19       1.164026224100e-10       6.056732608592e-16       1.754772125338e-13       0.000000000000e+00       4.165866911202e-10       2.622344773388e-11      -9.276540407474e-15 
   20       1.179648073778e-10       7.237350999456e-16       1.861769876412e-13       0.000000000000e+00       3.822096384706e-10       2.424684028053e-11      -3.897896225215e-15 
   21       1.195666276874e-10       8.621778927718e-16       1.971456509481e-13       0.000000000000e+00       3.518882828229e-10       2.249415749812e-11      -2.104483494458e-15 
   22       1.212196292907e-10       1.019713138703e-15       2.083082101071e-13       0.000000000000e+00       3.249184938084e-10       2.090732477910e-11      -3.481223461402e-15 
   23       1.229183613037e-10       1.197191850747e-15       2.195034067945e-13       0.000000000000e+00       3.009400808278e-10       1.948665302047e-11      -6.869072850312e-15 
   24       1.246322449591e-10       1.395955551623e-15       2.305052077565e-13       0.000000000000e+00       2.794066117450e-10       1.822997715577e-11      -1.067710718819e-14 
   25       1.263621127626e-10       1.616427644546e-15       2.410883163475e-13       0.000000000000e+00       2.600725238307e-10       1.710886965904e-11      -1.389148798613e-14 
   26       1.281055052258e-10       1.858746730398e-15       2.510064790308e-13       0.000000000000e+00       2.425961849488e-10       1.607681339591e-11      -1.569362123072e-14 
   27       1.298697387115e-10       2.123874902440e-15       2.600484213682e-13       0.000000000000e+00       2.267749925552e-10       1.512323974338e-11      -1.588962451980e-14 
   28       1.316554456673e-10       2.413116277754e-15       2.680341131037e-13       0.000000000000e+00       2.123431766918e-10       1.424282962913e-11      -1.460328378808e-14 
   29       1.334684516526e-10       2.728096346984e-15       2.749454358585e-13       0.000000000000e+00       1.992311482669e-10       1.343693908279e-11      -1.236396777205e-14 
   30       1.353035696629e-10       3.070655372671e-15       2.808415065762e-13       0.000000000000e+00       1.873017413972e-10       1.270214691672e-11      -9.987404140202e-15 
   31       1.371456837991e-10       3.442587043612e-15       2.857996474533e-13       0.000000000000e+00       1.763159968133e-10       1.202822886988e-11      -8.325772864237e-15 
   32       1.389998033807e-10       3.844861585529e-15       2.898275583359e-13       0.000000000000e+00       1.662202922371e-10       1.140900758783e-11      -7.541182934500e-15 
   33       1.408697502252e-10       4.278097474863e-15       2.929202382064e-13       0.000000000000e+00       1.569463009907e-10       1.083418363900e-11      -7.560546779337e-15 
   34       1.427522718312e-10       4.742879998784e-15       2.950629603989e-13       0.000000000000e+00       1.483677413372e-10       1.029057649256e-11      -8.235639740281e-15 
   35       1.446480027849e-10       5.240218283270e-15       2.961608863678e-13       0.000000000000e+00       1.404428308001e-10       9.778740908194e-12      -9.263822143141e-15 
   36       1.465526014979e-10       5.771241687706e-15       2.960832324125e-13       0.000000000000e+00       1.331099648885e-10       9.301525823392e-12      -1.022878619754e-14 
   37       1.484581657965e-10       6.337025762506e-15       2.946992470251e-13       0.000000000000e+00       1.262759969455e-10       8.859668081939e-12      -1.072437832500e-14 
   38       1.503712171808e-10       6.938409766594e-15       2.919430019743e-13       0.000000000000e+00       1.199247791379e-10       8.452561538224e-12      -1.073155857566e-14 
   39       1.522995648041e-10       7.576113000996e-15       2.877693498163e-13       0.000000000000e+00       1.140375930976e-10       8.077332910897e-12      -1.036463834488e-14 
   40       1.542468651051e-10       8.250777248975e-15       2.821367945777e-13       0.000000000000e+00       1.085600978829e-10       7.728336356086e-12      -9.773487624614e-15 
   41       1.562136867494e-10       8.962997852616e-15       2.750117270865e-13       0.000000000000e+00       1.034216131966e-10       7.398952183418e-12      -9.121562787161e-15 
   42       1.582022998163e-10       9.713441171369e-15       2.663823726380e-13       0.000000000000e+00       9.860801879646e-11       7.088249636960e-12      -8.505503429619e-15 
   43       1.602126212594e-10       1.050275691491e-14       2.562496754067e-13       0.000000000000e+00       9.410733498793e-11       6.796099294583e-12      -8.013481405093e-15 
   44       1.622404188020e-10       1.133154285926e-14       2.446240725527e-13       0.000000000000e+00       8.988781672554e-11       6.521235104375e-12      -7.748116514626e-15 
   45       1.642798160027e-10       1.220033682881e-14       2.315141643510e-13       0.000000000000e+00       8.590952236955e-11       6.261822800532e-12      -7.793142974515e-15 
   46       1.663326040484e-10       1.310959578517e-14       2.168876240101e-13       0.000000000000e+00       8.216686659230e-11       6.017589714186e-12      -8.099743459606e-15 
   47       1.684010616111e-10       1.405970615489e-14       2.006993676026e-13       0.000000000000e+00       7.865610217147e-11       5.788171499793e-12      -8.567519581662e-15 
   48       1.704850966149e-10       1.505098597060e-14       1.829020976798e-13       0.000000000000e+00       7.536247506653e-11       5.572450264038e-12      -9.074455562001e-15 
   49       1.725820291686e-10       1.608368200937e-14       1.634460752470e-13       0.000000000000e+00       7.225940205689e-11       5.368498551850e-12      -9.475711078393e-15 
   50       1.746884805231e-10       1.715796489159e-14       1.422851541470e-13       0.000000000000e+00       6.931661169672e-11       5.174154698210e-12      -9.643788472660e-15 
   51       1.768071480075e-10       1.827391944855e-14       1.193973442269e-13       0.000000000000e+00       6.652908016404e-11       4.989062948643e-12      -9.604688475064e-15 
   52       1.789414938589e-10       1.943154679365e-14       9.476943565669e-14       0.000000000000e+00       6.389452821804e-11       4.813090282756e-12      -9.436625774062e-15 
   53       1.810936847646e-10       2.063076324579e-14       6.839128945723e-14       0.000000000000e+00       6.140475329907e-11       4.645717769473e-12      -9.232607128677e-15 
   54       1.832644739017e-10       2.187139737165e-14       4.025590417762e-14       0.000000000000e+00       5.904522897000e-11       4.486014264372e-12      -9.101171244134e-15 
   55       1.854539847908e-10       2.315325234170e-14       1.035676181303e-14       0.000000000000e+00       5.679962322030e-11       4.332960508141e-12      -9.138882315106e-15 
   56       1.876645611233e-10       2.447631791365e-14      -2.132105929012e-14       0.000000000000e+00       5.466558543725e-11       4.186575962098e-12      -9.338113789285e-15 
   57       1.898984182760e-10       2.584060592964e-14      -5.479408829373e-14       0.000000000000e+00       5.264217964737e-11       4.047025831631e-12      -9.657652061269e-15 
   58       1.921567225025e-10       2.724608921252e-14      -9.007797300790e-14       0.000000000000e+00       5.072510489238e-11       3.914282815542e-12      -1.004858292075e-14 
   59       1.944395081091e-10       2.869270115284e-14      -1.271875192171e-13       0.000000000000e+00       4.890648631457e-11       3.788114455376e-12      -1.045393092169e-14 
   60       1.967455946302e-10       3.018033529588e-14      -1.661367300065e-13       0.000000000000e+00       4.717466624214e-11       3.668070484752e-12      -1.080829875151e-14 
   61       1.990735091787e-10       3.170875036940e-14      -2.069337706114e-13       0.000000000000e+00       4.551749441544e-11       3.553626469301e-12      -1.105287150526e-14 
   62       2.014246827986e-10       3.327726139031e-14      -2.495644533038e-13       0.000000000000e+00       4.393353430231e-11       3.444681022037e-12      -1.118518090865e-14 
   63       2.038008278598e-10       3.488497817516e-14      -2.940050984262e-13       0.000000000000e+00       4.242301288521e-11       3.341148252392e-12      -1.121992209821e-14 
   64       2.062029462706e-10       3.653089043562e-14      -3.402271624825e-13       0.000000000000e+00       4.098444753142e-11       3.242803784544e-12      -1.117469876121e-14 
   65       2.086312785465e-10       3.821386436517e-14      -3.881971164554e-13       0.000000000000e+00       3.961454810350e-11       3.149277065731e-12      -1.107015002171e-14 
   66       2.110852528796e-10       3.993263922587e-14      -4.378763241228e-13       0.000000000000e+00       3.830811906975e-11       3.060043674573e-12      -1.093007732650e-14 
   67       2.135634342072e-10       4.168582393505e-14      -4.892209203752e-13       0.000000000000e+00       3.705796161465e-11       2.974417629376e-12      -1.078157133114e-14 
   68       2.160643754879e-10       4.347202263329e-14      -5.421888314848e-13       0.000000000000e+00       3.585682778058e-11       2.891731068518e-12      -1.064914443553e-14 
   69       2.185894856763e-10       4.529024856343e-14      -5.967627597411e-13       0.000000000000e+00       3.470396150270e-11       2.811932762483e-12      -1.053546418330e-14 
   70       2.211406540511e-10       4.713958830789e-14      -6.529316589092e-13       0.000000000000e+00       3.359971319659e-11       2.735097615655e-12      -1.043692594841e-14 
   71       2.237193720682e-10       4.901908011514e-14      -7.106840642345e-13       0.000000000000e+00       3.254356040273e-11       2.661247176975e-12      -1.034927591993e-14 
   72       2.263267055043e-10       5.092771378516e-14      -7.700081534187e-13       0.000000000000e+00       3.153406237859e-11       2.590346740378e-12      -1.026758467983e-14 
   73       2.289632666005e-10       5.286443055492e-14      -8.308918075950e-13       0.000000000000e+00       3.056881469069e-11       2.522302445236e-12      -1.018622078084e-14 
   74       2.316291862051e-10       5.482812298388e-14      -8.933226723034e-13       0.000000000000e+00       2.964440380669e-11       2.456958376792e-12      -1.009882432417e-14 
   75       2.343240859173e-10       5.681763483945e-14      -9.572882184669e-13       0.000000000000e+00       2.875636168744e-11       2.394093666605e-12      -9.998280537386e-15 
   76       2.370474887399e-10       5.883171474661e-14      -1.022770676082e-12       0.000000000000e+00       2.790029292659e-11       2.333480977612e-12      -9.878686914773e-15 
   77       2.398001990693e-10       6.086886763190e-14      -1.089730633912e-12       0.000000000000e+00       2.707559383718e-11       2.275080681521e-12      -9.741727180275e-15 
   78       2.425831249125e-10       6.292747585563e-14      -1.158120546007e-12       0.000000000000e+00       2.628233221232e-11       2.218876987200e-12      -9.591417043805e-15 
   79       2.453968431429e-10       6.500584199902e-14      -1.227889550219e-12       0.000000000000e+00       2.552011392453e-11       2.164818083061e-12      -9.432227976450e-15 
   80       2.482415806354e-10       6.710218780160e-14      -1.298983424044e-12       0.000000000000e+00       2.478806156195e-11       2.112814496241e-12      -9.269101667884e-15 
   81       2.511171954021e-10       6.921465309861e-14      -1.371344540454e-12       0.000000000000e+00       2.408479306439e-11       2.062737451787e-12      -9.107464483795e-15 
   82       2.540231577273e-10       7.134129475834e-14      -1.444911823736e-12       0.000000000000e+00       2.340840035944e-11       2.014417231829e-12      -8.953241923302e-15 
   83       2.569585313030e-10       7.348008561952e-14      -1.519620705330e-12       0.000000000000e+00       2.275642799863e-11       1.967641534769e-12      -8.812873076378e-15 
   84       2.599223994589e-10       7.562898592587e-14      -1.595407073475e-12       0.000000000000e+00       2.212648115585e-11       1.922209687515e-12      -8.691810466650e-15 
   85       2.629152663623e-10       7.778617356395e-14      -1.672219971232e-12       0.000000000000e+00       2.151821222918e-11       1.878109202530e-12      -8.589702166956e-15 
   86       2.659378545998e-10       7.994985022306e-14      -1.750010932340e-12       0.000000000000e+00       2.093162593721e-11       1.835365617931e-12      -8.504433774002e-15 
   87       2.689906695199e-10       8.211817244521e-14      -1.828730197189e-12       0.000000000000e+00       2.036646861103e-11       1.793988555051e-12      -8.433561172970e-15 
   88       2.720739878484e-10       8.428925178094e-14      -1.908326735778e-12       0.000000000000e+00       1.982221740790e-11       1.753971016325e-12      -8.374299539232e-15 
   89       2.751878463049e-10       8.646115494516e-14      -1.988748270673e-12       0.000000000000e+00       1.929806952484e-11       1.715288683177e-12      -8.323512340064e-15 
   90       2.783320302183e-10       8.863190397294e-14      -2.069941299968e-12       0.000000000000e+00       1.879293141226e-11       1.677899213912e-12      -8.277700336356e-15 
   91       2.815060621428e-10       9.079947637533e-14      -2.151851120246e-12       0.000000000000e+00       1.830540798765e-11       1.641741541598e-12      -8.232990584325e-15 
   92       2.847091904738e-10       9.296180529517e-14      -2.234421849534e-12       0.000000000000e+00       1.783379184913e-11       1.606735171957e-12      -8.185125437230e-15 
   93       2.879406706176e-10       9.511680890842e-14      -2.317595869243e-12       0.000000000000e+00       1.737647546003e-11       1.572800846204e-12      -8.130399604307e-15 
   94       2.912006816005e-10       9.726248334776e-14      -2.401312004108e-12       0.000000000000e+00       1.693328204443e-11       1.539927609486e-12      -8.068656430775e-15 
   95       2.944895269109e-10       9.939682410784e-14      -2.485507109682e-12       0.000000000000e+00       1.650431584687e-11       1.508114578338e-12      -8.000724020680e-15 
   96       2.978073469602e-10       1.015177985948e-13      -2.570116643757e-12       0.000000000000e+00       1.608955208312e-11       1.477350071156e-12      -7.927509321177e-15 
   97       3.011541117135e-10       1.036233466837e-13      -2.655074681343e-12       0.000000000000e+00       1.568883195984e-11       1.447611199355e-12      -7.850000138060e-15 
   98       3.045296133225e-10       1.057113812754e-13      -2.740313929656e-12       0.000000000000e+00       1.530185769426e-11       1.418863458527e-12      -7.769267151309e-15 
   99       3.079334587564e-10       1.077797888543e-13      -2.825765743099e-12       0.000000000000e+00       1.492818753392e-11       1.391060319608e-12      -7.686465930623e-15 
  100       3.113650624340e-10       1.098264300453e-13      -2.911360138245e-12       0.000000000000e+00       1.456723077627e-11       1.364142820032e-12      -7.602838950963e-15 
  101       3.148236388554e-10       1.118491401713e-13      -2.997025808824e-12       0.000000000000e+00       1.421824278839e-11       1.338039154899e-12      -7.519717608087e-15 
  102       3.183081952339e-10       1.138457298101e-13      -3.082690140704e-12       0.000000000000e+00       1.388032002671e-11       1.312664268128e-12      -7.438524234091e-15 
  103       3.218175241275e-10       1.158139853519e-13      -3.168279226875e-12       0.000000000000e+00       1.355239505661e-11       1.287919443624e-12      -7.360774112945e-15 
  104       3.253504658261e-10       1.177517267335e-13      -3.253719002328e-12       0.000000000000e+00       1.323348258101e-11       1.263715377344e-12      -7.287727905247e-15 
  105       3.289067517507e-10       1.196569883220e-13      -3.338938791001e-12       0.000000000000e+00       1.292346610330e-11       1.240045823632e-12      -7.219291108194e-15 
  106       3.324862617792e-10       1.215278636183e-13      -3.423868268134e-12       0.000000000000e+00       1.262240874106e-11       1.216923181553e-12      -7.154968994146e-15 
  107       3.360887603137e-10       1.233624514339e-13      -3.508436410130e-12       0.000000000000e+00       1.233030951149e-11       1.194355753385e-12      -7.094201121578e-15 
