# dimensionless total [l(l+1)/2pi] C_l's
# for l=2 to 3000, i.e. number of multipoles equal to 2999
#
# -> if you prefer output in CAMB/HealPix/LensPix units/order, set 'format' to 'camb' in input file
# -> if you don't want to see such a header, set 'headers' to 'no' in input file
# -> for CMB lensing (phi), these are C_l^phi-phi for the lensing potential.
#    Remember the conversion factors:
#    C_l^dd (deflection) = l(l+1) C_l^phi-phi
#    C_l^gg (shear/convergence) = 1/4 (l(l+1))^2 C_l^phi-phi
#
# 1:l     2:TT                     3:EE                     4:TE                     5:BB                     6:phiphi                 7:TPhi                   8:Ephi               
    2       1.851235984935e-10       7.734798768357e-15       4.106765164989e-13       0.000000000000e+00       6.517330841723e-09       6.372471719676e-10      -2.417578111480e-12 
    3       1.649426439105e-10       9.086289439212e-15       4.838042279066e-13       0.000000000000e+00       4.009779121708e-09       4.369931325898e-10      -1.733075073951e-12 
    4       1.492217592203e-10       7.047627348899e-15       4.529991264412e-13       0.000000000000e+00       2.768712347614e-09       3.227230538727e-10      -1.028523402146e-12 
    5       1.380376936437e-10       4.184324862262e-15       3.782682678434e-13       0.000000000000e+00       2.051839818310e-09       2.498287399047e-10      -4.721687273832e-13 
    6       1.303341464087e-10       2.147122688070e-15       2.944860565630e-13       0.000000000000e+00       1.591036650276e-09       1.998680562831e-10      -9.936440225570e-14 
    7       1.251558637046e-10       1.188142064782e-15       2.214217168425e-13       0.000000000000e+00       1.273829378142e-09       1.639307743288e-10       1.032827833412e-13 
    8       1.217559756203e-10       8.465615744964e-16       1.671276963736e-13       0.000000000000e+00       1.045084691664e-09       1.371066956118e-10       1.735506904216e-13 
    9       1.196431318528e-10       6.844109690439e-16       1.324789593757e-13       0.000000000000e+00       8.742540886292e-10       1.165140231041e-10       1.581088659284e-13 
   10       1.184726223176e-10       5.399280124525e-16       1.143552876170e-13       0.000000000000e+00       7.428366111976e-10       1.003643824307e-10       1.013725698589e-13 
   11       1.180398289783e-10       4.225838931147e-16       1.079461644021e-13       0.000000000000e+00       6.323029287303e-10       8.809317317340e-11       3.861457995794e-14 
   12       1.181487588834e-10       3.560617621445e-16       1.084125454890e-13       0.000000000000e+00       5.497257973120e-10       7.729384811194e-11      -1.002918991075e-14 
   13       1.186429086040e-10       3.269397511716e-16       1.120245762605e-13       0.000000000000e+00       4.821341896052e-10       6.837535750613e-11      -3.557954874339e-14 
   14       1.194880654815e-10       3.124383953272e-16       1.164990097901e-13       0.000000000000e+00       4.260595870490e-10       6.088379689775e-11      -3.970107765871e-14 
   15       1.206889861769e-10       3.075562001597e-16       1.207786627393e-13       0.000000000000e+00       3.790080528591e-10       5.451578730329e-11      -2.980618343893e-14 
   16       1.220551729879e-10       3.209466305280e-16       1.248717466757e-13       0.000000000000e+00       3.391199517198e-10       4.906594304909e-11      -1.480507232194e-14 
   17       1.236383287407e-10       3.590696443640e-16       1.293466493330e-13       0.000000000000e+00       3.050075623199e-10       4.442104714737e-11      -1.887145418588e-15 
   18       1.254025184869e-10       4.202494311701e-16       1.348147957786e-13       0.000000000000e+00       2.754930170120e-10       4.031920831227e-11       4.562285566818e-15 
   19       1.273388266775e-10       5.014417547663e-16       1.415827775840e-13       0.000000000000e+00       2.500739271767e-10       3.673304685194e-11       4.435038031128e-15 
   20       1.294004538296e-10       5.986529970163e-16       1.496987666003e-13       0.000000000000e+00       2.277557470089e-10       3.363299628023e-11      -3.833878501765e-16 
   21       1.315787281418e-10       7.104941324223e-16       1.586529827173e-13       0.000000000000e+00       2.081714889331e-10       3.094259821179e-11      -7.151650898556e-15 
   22       1.338472276057e-10       8.359896507297e-16       1.676346309258e-13       0.000000000000e+00       1.908348917241e-10       2.852639170189e-11      -1.258538200267e-14 
   23       1.362242814273e-10       9.740086501001e-16       1.761093318144e-13       0.000000000000e+00       1.754953994682e-10       2.635707848621e-11      -1.529235750961e-14 
   24       1.387162008167e-10       1.123738493268e-15       1.836129837367e-13       0.000000000000e+00       1.617869575777e-10       2.441389501779e-11      -1.474082204413e-14 
   25       1.413078120719e-10       1.287524891570e-15       1.899261214559e-13       0.000000000000e+00       1.495394007695e-10       2.267056212283e-11      -1.184002770894e-14 
   26       1.439627026409e-10       1.468811871789e-15       1.949667652601e-13       0.000000000000e+00       1.385223212894e-10       2.108419995534e-11      -8.172458566836e-15 
   27       1.466813343666e-10       1.669558883812e-15       1.989259257808e-13       0.000000000000e+00       1.285971098735e-10       1.964411850299e-11      -5.044655592384e-15 
   28       1.494654622313e-10       1.891216345629e-15       2.020908755581e-13       0.000000000000e+00       1.195863462006e-10       1.833910076461e-11      -3.582509275938e-15 
   29       1.523237815151e-10       2.134719842489e-15       2.045452764264e-13       0.000000000000e+00       1.114394142122e-10       1.716209856094e-11      -3.689088051934e-15 
   30       1.552543685192e-10       2.400752521327e-15       2.063230780197e-13       0.000000000000e+00       1.040640389417e-10       1.609476908508e-11      -4.751130323702e-15 
   31       1.582440990547e-10       2.689880937473e-15       2.074307921038e-13       0.000000000000e+00       9.730408604509e-11       1.510992800991e-11      -6.042741304717e-15 
   32       1.612948860739e-10       3.002666513484e-15       2.077002789578e-13       0.000000000000e+00       9.112143219093e-11       1.420492252296e-11      -7.135129611977e-15 
   33       1.644044916305e-10       3.339575274218e-15       2.068753902100e-13       0.000000000000e+00       8.546953624524e-11       1.337900804787e-11      -7.625439670946e-15 
   34       1.675632042406e-10       3.701055789217e-15       2.046960790450e-13       0.000000000000e+00       8.026597342115e-11       1.262547199201e-11      -7.179063806353e-15 
   35       1.707709095683e-10       4.087949184302e-15       2.010730561028e-13       0.000000000000e+00       7.548184848811e-11       1.193701215422e-11      -6.064579406832e-15 
   36       1.740241730590e-10       4.501218402177e-15       1.959734865027e-13       0.000000000000e+00       7.107649531418e-11       1.130109447747e-11      -4.815322465008e-15 
   37       1.773154058277e-10       4.941771008886e-15       1.893908902366e-13       0.000000000000e+00       6.698994847827e-11       1.070274192800e-11      -3.964115668132e-15 
   38       1.806486645390e-10       5.410219934873e-15       1.813969308519e-13       0.000000000000e+00       6.321012227206e-11       1.014113603732e-11      -3.584388111619e-15 
   39       1.840279109634e-10       5.907037983308e-15       1.721095115365e-13       0.000000000000e+00       5.972365295405e-11       9.617885932163e-12      -3.600633849631e-15 
   40       1.874520819091e-10       6.432614964721e-15       1.616815673297e-13       0.000000000000e+00       5.649550961657e-11       9.132303638019e-12      -3.908622638374e-15 
   41       1.909172434070e-10       6.987375048283e-15       1.502432283402e-13       0.000000000000e+00       5.348084782519e-11       8.681968550143e-12      -4.390011416400e-15 
   42       1.944252132659e-10       7.572187668510e-15       1.377007269356e-13       0.000000000000e+00       5.066972591893e-11       8.265168567941e-12      -4.966879787060e-15 
   43       1.979768236062e-10       8.188081344802e-15       1.238754857929e-13       0.000000000000e+00       4.805378446734e-11       7.878884837889e-12      -5.561460545437e-15 
   44       2.015691059023e-10       8.836135517101e-15       1.085563334897e-13       0.000000000000e+00       4.561285410498e-11       7.517914531344e-12      -6.080080678892e-15 
   45       2.051973427019e-10       9.517323444170e-15       9.154503006846e-14       0.000000000000e+00       4.332191867612e-11       7.176459066257e-12      -6.440587922212e-15 
   46       2.088628082597e-10       1.023197774790e-14       7.281392944336e-14       0.000000000000e+00       4.117668744328e-11       6.853844378687e-12      -6.666566755292e-15 
   47       2.125667255674e-10       1.098017024392e-14       5.239194684292e-14       0.000000000000e+00       3.917407962535e-11       6.550229702025e-12      -6.819731087856e-15 
   48       2.163078355425e-10       1.176185217252e-14       3.032172716779e-14       0.000000000000e+00       3.730452469891e-11       6.264939977523e-12      -6.974724678808e-15 
   49       2.200821736461e-10       1.257684800758e-14       6.660325018484e-15       0.000000000000e+00       3.555148344389e-11       5.996401595047e-12      -7.219837393414e-15 
   50       2.238850582316e-10       1.342501495598e-14      -1.854529015368e-14       0.000000000000e+00       3.389629860309e-11       5.742687902723e-12      -7.630972006041e-15 
   51       2.277182101067e-10       1.430678685891e-14      -4.534113460979e-14       0.000000000000e+00       3.233541024575e-11       5.503479380396e-12      -8.183552268599e-15 
   52       2.315841793668e-10       1.522276722478e-14      -7.380463671124e-14       0.000000000000e+00       3.086698541787e-11       5.278524457059e-12      -8.817941377522e-15 
   53       2.354841861003e-10       1.617357801021e-14      -1.040219214704e-13       0.000000000000e+00       2.948577420816e-11       5.067041524493e-12      -9.463571871063e-15 
   54       2.394180010874e-10       1.715986122620e-14      -1.360883152229e-13       0.000000000000e+00       2.818288159907e-11       4.867683373037e-12      -1.003840308863e-14 
   55       2.433847250387e-10       1.818214021880e-14      -1.700847976345e-13       0.000000000000e+00       2.694839501010e-11       4.678934622611e-12      -1.046741687374e-14 
   56       2.473856263004e-10       1.924035947698e-14      -2.059993512376e-13       0.000000000000e+00       2.578055397266e-11       4.500501106552e-12      -1.074472816251e-14 
   57       2.514217991324e-10       2.033423331643e-14      -2.437869574045e-13       0.000000000000e+00       2.467845877837e-11       4.332203346999e-12      -1.088595369613e-14 
   58       2.554932444759e-10       2.146337241175e-14      -2.833915141392e-13       0.000000000000e+00       2.363930002225e-11       4.173555512409e-12      -1.091072049835e-14 
   59       2.595987856613e-10       2.262727993534e-14      -3.247454036330e-13       0.000000000000e+00       2.265824171436e-11       4.023746723265e-12      -1.084286508457e-14 
   60       2.637359841161e-10       2.382534769632e-14      -3.677690598201e-13       0.000000000000e+00       2.172830439163e-11       3.881622357788e-12      -1.071063267091e-14 
   61       2.679022805978e-10       2.505696946046e-14      -4.123914118415e-13       0.000000000000e+00       2.084225167377e-11       3.745993831528e-12      -1.054155551581e-14 
   62       2.720989089260e-10       2.632191936812e-14      -4.586175549738e-13       0.000000000000e+00       1.999900920126e-11       3.616691481816e-12      -1.034529388937e-14 
   63       2.763277151493e-10       2.762005199121e-14      -5.064755709133e-13       0.000000000000e+00       1.919848563370e-11       3.493715916717e-12      -1.012727954720e-14 
   64       2.805899650316e-10       2.895119250730e-14      -5.559972175930e-13       0.000000000000e+00       1.843964408003e-11       3.376922287247e-12      -9.893726511927e-15 
   65       2.848862986443e-10       3.031513655653e-14      -6.072181591147e-13       0.000000000000e+00       1.772044877810e-11       3.266012015311e-12      -9.651661455105e-15 
   66       2.892166849597e-10       3.171165009860e-14      -6.601781956814e-13       0.000000000000e+00       1.703781177416e-11       3.160524521642e-12      -9.408954079241e-15 
   67       2.935803764433e-10       3.314046926971e-14      -7.149214935296e-13       0.000000000000e+00       1.638753960237e-11       3.059828953739e-12      -9.174347499752e-15 
   68       2.979764409611e-10       3.460124923227e-14      -7.714827930465e-13       0.000000000000e+00       1.576542304383e-11       2.963289234680e-12      -8.955751388210e-15 
   69       3.024055841530e-10       3.609339900814e-14      -8.298422740061e-13       0.000000000000e+00       1.517088200446e-11       2.870816535070e-12      -8.754651876074e-15 
   70       3.068686164452e-10       3.761621276754e-14      -8.899619158818e-13       0.000000000000e+00       1.460396679145e-11       2.782414400515e-12      -8.570618325469e-15 
   71       3.113658783157e-10       3.916891645357e-14      -9.517985840980e-13       0.000000000000e+00       1.406425672630e-11       2.698011565148e-12      -8.402926550250e-15 
   72       3.158972096520e-10       4.075066633461e-14      -1.015303901348e-12       0.000000000000e+00       1.355083605906e-11       2.617458112332e-12      -8.250544767327e-15 
   73       3.204619191088e-10       4.236054755679e-14      -1.080424118912e-12       0.000000000000e+00       1.306226988264e-11       2.540521635349e-12      -8.112119547980e-15 
   74       3.250587534665e-10       4.399757269641e-14      -1.147099987976e-12       0.000000000000e+00       1.259658004708e-11       2.466883398107e-12      -7.985961769178e-15 
   75       3.296858669884e-10       4.566068031234e-14      -1.215266630947e-12       0.000000000000e+00       1.215122107386e-11       2.396134495830e-12      -7.870032564896e-15 
   76       3.343414972257e-10       4.734878574917e-14      -1.284862289475e-12       0.000000000000e+00       1.172369505726e-11       2.327878939375e-12      -7.762378329323e-15 
   77       3.390262024416e-10       4.906094744169e-14      -1.355856694634e-12       0.000000000000e+00       1.131357906366e-11       2.262073097009e-12      -7.662558361077e-15 
   78       3.437409784169e-10       5.079622844780e-14      -1.428227660427e-12       0.000000000000e+00       1.092082539708e-11       2.198741463827e-12      -7.570453242713e-15 
   79       3.484865723052e-10       5.255364651815e-14      -1.501952718522e-12       0.000000000000e+00       1.054514460503e-11       2.137873609310e-12      -7.485834122224e-15 
   80       3.532634664764e-10       5.433217372000e-14      -1.577009171593e-12       0.000000000000e+00       1.018599449573e-11       2.079422530584e-12      -7.408357872537e-15 
   81       3.580718623614e-10       5.613073606112e-14      -1.653374146660e-12       0.000000000000e+00       9.842569155354e-12       2.023303005670e-12      -7.337562250998e-15 
   82       3.629116642959e-10       5.794821311366e-14      -1.731024648436e-12       0.000000000000e+00       9.513787965267e-12       1.969389946736e-12      -7.272861058871e-15 
   83       3.677824633646e-10       5.978343763800e-14      -1.809937612665e-12       0.000000000000e+00       9.198284619240e-12       1.917516753355e-12      -7.213539300821e-15 
   84       3.726837910014e-10       6.163519897954e-14      -1.890086436520e-12       0.000000000000e+00       8.894728890781e-12       1.867517511436e-12      -7.158842241177e-15 
   85       3.776159634836e-10       6.350225472985e-14      -1.971429792074e-12       0.000000000000e+00       8.602877281627e-12       1.819365235115e-12      -7.108270138817e-15 
   86       3.825793484672e-10       6.538332031805e-14      -2.053921047518e-12       0.000000000000e+00       8.322677221980e-12       1.773053629767e-12      -7.061323725428e-15 
   87       3.875740962270e-10       6.727706510171e-14      -2.137511619437e-12       0.000000000000e+00       8.053944495700e-12       1.728554387523e-12      -7.017411438693e-15 
   88       3.926001280351e-10       6.918211205412e-14      -2.222150966947e-12       0.000000000000e+00       7.796357849981e-12       1.685816277421e-12      -6.975846159888e-15 
   89       3.976571245383e-10       7.109703745159e-14      -2.307786585823e-12       0.000000000000e+00       7.549453605011e-12       1.644764235566e-12      -6.935841951458e-15 
   90       4.027445141361e-10       7.302037056072e-14      -2.394364002636e-12       0.000000000000e+00       7.312620263650e-12       1.605298455280e-12      -6.896510794617e-15 
   91       4.078614613587e-10       7.495059332569e-14      -2.481826768884e-12       0.000000000000e+00       7.085093121092e-12       1.567293477260e-12      -6.856859326927e-15 
   92       4.130068552449e-10       7.688614005552e-14      -2.570116455124e-12       0.000000000000e+00       6.865948874540e-12       1.530597279733e-12      -6.815785579889e-15 
   93       4.181796379202e-10       7.882543269515e-14      -2.659174108583e-12       0.000000000000e+00       6.654318259807e-12       1.495066356656e-12      -6.772323590728e-15 
   94       4.233798721064e-10       8.076699338578e-14      -2.748944889508e-12       0.000000000000e+00       6.450072251818e-12       1.460678963506e-12      -6.726426407578e-15 
   95       4.286078134243e-10       8.270934833422e-14      -2.839374124519e-12       0.000000000000e+00       6.253229582744e-12       1.427437300706e-12      -6.678295364422e-15 
   96       4.338635776401e-10       8.465099391087e-14      -2.930405919293e-12       0.000000000000e+00       6.063745545423e-12       1.395332632907e-12      -6.628142838141e-15 
   97       4.391471337128e-10       8.659039682552e-14      -3.021983172791e-12       0.000000000000e+00       5.881509595844e-12       1.364344873144e-12      -6.576192388631e-15 
   98       4.444582968423e-10       8.852599430302e-14      -3.114047591475e-12       0.000000000000e+00       5.706342955638e-12       1.334442166996e-12      -6.522678898920e-15 
   99       4.497967215167e-10       9.045619425907e-14      -3.206539703529e-12       0.000000000000e+00       5.537996214567e-12       1.305580476739e-12      -6.467848715281e-15 
  100       4.551618945605e-10       9.237937547593e-14      -3.299398873087e-12       0.000000000000e+00       5.376146933013e-12       1.277703165505e-12      -6.411959787354e-15 
  101       4.605531281820e-10       9.429388777814e-14      -3.392563314446e-12       0.000000000000e+00       5.220397244468e-12       1.250740581443e-12      -6.355281808258e-15 
  102       4.659695530212e-10       9.619805220829e-14      -3.485970106297e-12       0.000000000000e+00       5.070271458022e-12       1.224609641866e-12      -6.298096354708e-15 
  103       4.714101111975e-10       9.809016120274e-14      -3.579555205937e-12       0.000000000000e+00       4.925213660852e-12       1.199213417420e-12      -6.240697027133e-15 
  104       4.768737854029e-10       9.996851578527e-14      -3.673253868827e-12       0.000000000000e+00       4.784710163321e-12       1.174463383338e-12      -6.183336572265e-15 
  105       4.823603364004e-10       1.018315424917e-13      -3.767001941148e-12       0.000000000000e+00       4.648680835836e-12       1.150350492165e-12      -6.126059814137e-15 
  106       4.878696526537e-10       1.036776926414e-13      -3.860734769171e-12       0.000000000000e+00       4.517136412350e-12       1.126882971371e-12      -6.068848310655e-15 
  107       4.934015188721e-10       1.055054073048e-13      -3.954386827977e-12       0.000000000000e+00       4.390057355179e-12       1.104064348848e-12      -6.011670918617e-15 
